,Wavelength (nm),intensity,reference,reflectance,absorption
0,901.1453606559668,31235,9880,3.1614372469635628,-0.4998845656944124
1,903.771937013324,35826,11044,3.243933357479174,-0.5110719235981979
2,906.396594248366,39306,12064,3.2581233421750664,-0.5129675212898847
3,909.0193323610927,42324,12940,3.2707882534775887,-0.5146524293824328
4,911.6401513515042,45000,13632,3.301056338028169,-0.5186529363527188
5,912.9498411758417,46212,13972,3.307472087031205,-0.5194961877047468
6,915.5677814827802,48709,14708,3.3117351101441392,-0.5200555923630394
7,918.1838026674036,51440,15496,3.3195663397005677,-0.5210813522051112
8,920.7979047297116,54520,16344,3.33578071463534,-0.5231974935382447
9,923.4100876697042,58060,17608,3.297364834166288,-0.5181670019503634
10,926.0203514873817,62029,18876,3.286130536130536,-0.5166848110756666
11,928.6286961827441,66490,20300,3.275369458128079,-0.5152602950381778
12,929.9321488595568,69084,21012,3.287835522558538,-0.5169100833716879
13,932.5376148714462,74348,22776,3.2643133122585177,-0.5137918361279991
14,935.1411617610203,80451,24664,3.2618796626662343,-0.5134679349985452
15,937.7427895282791,86818,26680,3.254047976011994,-0.512423951662818
16,940.3424981732226,93549,28660,3.264096301465457,-0.5137629633716767
17,942.9402876958508,100590,30616,3.285536974131173,-0.5166063589320395
18,945.5361580961638,107154,32580,3.288950276243094,-0.5170573076825689
19,946.833373625452,110503,33500,3.298597014925373,-0.5183292616246447
20,949.4263653422921,116784,35332,3.305332276689686,-0.5192151245415373
21,952.017437936817,122936,37020,3.3207995678011883,-0.5212426638474652
22,954.6065914090266,128883,38664,3.3334109248913717,-0.5228888544383298
23,957.1938257589209,135031,40260,3.353974167908594,-0.5255597133750293
24,959.7791409864998,140879,41848,3.3664452303574843,-0.5271715532025946
25,962.3625370917636,147267,43560,3.380785123966942,-0.5290175687424066
26,963.6535154735272,150348,44468,3.381038049833588,-0.5290500582960204
27,966.234032895318,156444,46264,3.3815493688397025,-0.529115732278336
28,968.8126311947937,162818,48032,3.38978181212525,-0.5301717451530635
29,971.389310371954,169506,49776,3.4053760848601735,-0.5321650817583827
30,973.964070426799,175805,51496,3.413954481901507,-0.5332577263889121
31,976.5369113593288,182420,53188,3.429720989696924,-0.535258791307019
32,979.1078331695433,188552,54820,3.439474644290405,-0.5364921121908095
33,981.6768358574425,194693,56376,3.45347310912445,-0.5382560786701422
34,982.9606175305239,197605,57184,3.4555994683827644,-0.5385233985198693
35,985.5267415349502,203200,58792,3.456252551367533,-0.5386054692402908
36,988.0909464170613,208798,60152,3.471173028328235,-0.5404762625838994
37,990.6532321768572,213944,61436,3.4823881763135622,-0.5418771796000388
38,993.2135988143377,218631,62640,3.4902777777777776,-0.5428599921613075
39,995.7720463295029,223224,63640,3.507605279698303,-0.5450107151119017
40,998.328574722353,227161,64620,3.5153358093469516,-0.5459668181695833
41,999.6061192479098,228885,65108,3.515466609326043,-0.54598297726659
42,1002.1597689572868,232340,65992,3.5207297854285367,-0.5466326944253144
43,1004.7114995443487,235481,66788,3.5257980475534527,-0.547257432936374
44,1007.2613110090953,238243,67600,3.524304733727811,-0.5470734532174834
45,1009.8092033515265,240727,68228,3.528272849856364,-0.5475621627990825
46,1012.3551765716427,242627,68672,3.5331284948741843,-0.5481594323966432
47,1014.8992306694433,244633,69156,3.5374081786106775,-0.5486851755881051
48,1016.1705380474756,245196,69392,3.5334908923218813,-0.5482039762452093
49,1018.7117134618034,246743,69840,3.532975372279496,-0.548140610058566
50,1021.250969753816,247919,70224,3.530402711323764,-0.5478242479742872
51,1023.7883069235133,249162,70548,3.5318081306344618,-0.5479971020204528
52,1026.3237249708955,249833,70736,3.531907373897308,-0.5480093054568442
53,1028.8572238959623,250596,70960,3.531510710259301,-0.5479605277044057
54,1031.3888036987137,251387,71224,3.5295265640795237,-0.5477164548504134
55,1032.6538739292214,251777,71356,3.528462918325018,-0.5475855576631817
56,1035.1825750485,252505,71800,3.516782729805014,-0.5461455380179643
57,1037.709357045463,253060,72092,3.5102369194917604,-0.545336429672528
58,1040.2342199201112,253931,72224,3.5158811475409837,-0.5460341855599984
59,1042.7571636724442,254492,72472,3.5115906832983774,-0.5455038881154168
60,1045.2781883024618,255111,72760,3.5061984606926884,-0.544836494742475
61,1047.797293810164,255644,73084,3.4979475671829676,-0.5438132952930942
62,1049.056126893147,255971,73196,3.4970626810208207,-0.5437034166322354
63,1051.5723537173762,256178,73404,3.4899732984578495,-0.5428221042151181
64,1054.0866614192903,256899,73560,3.492373572593801,-0.5431206931774291
65,1056.5990499988893,257485,73760,3.4908486984815617,-0.542931025887069
66,1059.1095194561728,258035,74008,3.4865825316182035,-0.5423999499373636
67,1061.6180697911411,258647,74172,3.487124521382732,-0.5424674558313359
68,1064.1247010037941,259128,74328,3.486277042298999,-0.5423618960157869
69,1065.3772969392526,259504,74404,3.4877694747594217,-0.542547772376228
70,1067.8810494684326,259901,74596,3.4841144297281357,-0.5420924102229371
71,1070.3828828752976,260689,74864,3.4821676640307757,-0.5418496782719331
72,1072.882797159847,261567,75092,3.4832871677409045,-0.5419892798628436
73,1075.3807923220816,262276,75376,3.4795690936106984,-0.5415254646781198
74,1077.8768683620006,262934,75712,3.4728180473372783,-0.5406820297526164
75,1080.3710252796045,263531,75908,3.471715761184592,-0.5405441610890575
76,1082.863263074893,264553,76164,3.473465154141064,-0.54076294638292
77,1084.108662301669,264900,76328,3.470548160570171,-0.5403980754563571
78,1086.5980214134847,265698,76644,3.466651009863786,-0.5399101231334111
79,1089.085461402985,266516,76792,3.4706219397853943,-0.5404073078784383
80,1091.5709822701701,267551,77012,3.4741468861995535,-0.5408481763785989
81,1094.0545840150398,268251,77300,3.4702587322121605,-0.540361855708191
82,1096.5362666375945,268690,77536,3.46535802723896,-0.5397481108732812
83,1099.016030137834,269409,77796,3.4630186641986733,-0.5394548322184327
84,1100.2551922170853,269950,77932,3.4639172612020737,-0.5395675099525488
85,1102.7320770338517,270609,78252,3.4581735930072073,-0.5388467901504179
86,1105.207042728303,271126,78608,3.449089151231427,-0.5377044200523643
87,1107.6800893004388,271801,78824,3.4482010555160865,-0.537592580457641
88,1110.1512167502592,272306,79080,3.4434243803743043,-0.5369905500636748
89,1112.6204250777646,272710,79372,3.435846394194426,-0.5360337396630095
90,1115.0877142829547,273390,79640,3.4328227021597186,-0.5356513736377859
91,1116.3206392146815,273653,79768,3.430611272690803,-0.5353715103354731
92,1118.7850497363988,273753,80000,3.4219125,-0.534268900221735
93,1121.2475411358007,273995,80292,3.412481940915658,-0.5330703617392357
94,1123.7081134128873,274429,80628,3.4036438954209456,-0.5319441159414297
95,1126.1667665676587,274329,80916,3.3902936378466557,-0.5302373146555167
96,1128.6235006001148,274583,81244,3.379732657180838,-0.528882348176148
97,1131.0783155102556,274832,81600,3.3680392156862746,-0.5273771395547502
98,1132.3050032944577,274994,81724,3.3649111644070286,-0.5269736030868613
99,1134.7569395211258,274909,81972,3.3536939442736546,-0.52552342667259
100,1137.2069566254784,274913,82284,3.3410262019347625,-0.5238798815977426
101,1139.655054607516,274821,82668,3.3243939613877194,-0.5217124847626277
102,1142.1012334672378,274680,82960,3.31099324975892,-0.5199582953411832
103,1144.5454932046446,274789,83336,3.2973624844004994,-0.5181666924636276
104,1146.9878338197364,274680,83788,3.2782737384828375,-0.5156452146856777
105,1148.2082844564138,274653,83976,3.2706130322949414,-0.5146291629324996
106,1150.6477463880326,274522,84348,3.254635557452459,-0.5125023648708481
107,1153.085289197336,274756,84752,3.2418821974702663,-0.5107972295383622
108,1155.5209128843242,274898,85164,3.2278662345592033,-0.5089155289011748
109,1157.9546174489972,275209,85584,3.2156594690596374,-0.507270051724833
110,1160.3864028913547,275667,86008,3.2051320807366754,-0.505845931125716
111,1162.816269211397,276040,86460,3.1926902613925514,-0.5041567875363281
112,1164.03048270055,275980,86708,3.1828666328366473,-0.5028184413741991
113,1166.4574703371195,276037,87176,3.166433422042764,-0.5005703609111279
114,1168.8825388513737,276549,87616,3.1563755478451423,-0.4991886702831593
115,1171.3056882433125,276900,88220,3.138744048968488,-0.49675590230318595
116,1173.7269185129362,277567,88832,3.1246285122478388,-0.49479839138535503
117,1176.1462296602444,278373,89452,3.11198184501185,-0.49303705469484554
118,1178.5636216852376,279052,89928,3.1030602259585445,-0.49179020470038814
119,1179.7715980268663,279456,90160,3.099556344276841,-0.49129953544032906
120,1182.1861113683863,280449,90772,3.0895981139558453,-0.48990199132047646
121,1184.5987055875912,281525,91492,3.077044987539894,-0.4881338458404076
122,1187.009380684481,282559,92316,3.0607803631006543,-0.4858321664102252
123,1189.4181366590553,284011,93016,3.0533564118001206,-0.4847775015288314
124,1191.8249735113145,285341,93592,3.04877553637063,-0.48412545096292076
125,1194.2298912412584,287122,94424,3.0407735321528424,-0.4829840763760275
126,1196.6328898488869,289145,95264,3.0351969264360092,-0.4821868737605346
127,1197.833669481833,290263,95680,3.0336852006688964,-0.48197051293538207
128,1200.2337894059888,292899,96508,3.0349711940978987,-0.48215457340017326
129,1202.6319902078292,295364,97340,3.034353811382782,-0.4820662189597436
130,1205.0282718873545,298179,98188,3.036817126329083,-0.48241863998628015
131,1207.4226344445644,300460,99084,3.0323765693754794,-0.48178313226570274
132,1209.8150778794588,302877,100020,3.0281643671265748,-0.48117944473777996
133,1212.2056021920384,305541,100988,3.025517883312869,-0.48079972431559376
134,1213.4001446774598,306869,101464,3.024412599542695,-0.48064103864175844
135,1215.7877903065662,310095,102440,3.0270890277235454,-0.48102519389364007
136,1218.1735168133575,313135,103360,3.029556888544892,-0.4813791120228976
137,1220.5573241978334,316516,104224,3.036882100092109,-0.48242793176899773
138,1222.939212459994,319737,105264,3.0374772001823986,-0.4825130267307686
139,1225.3191815998396,322911,106228,3.039791768648567,-0.48284383465340686
140,1227.6972316173697,327092,107112,3.0537381432519233,-0.48483179374972574
141,1228.8855369552666,328648,107644,3.0531009624317194,-0.48474116614012136
142,1231.2607082893237,332518,108700,3.059043238270469,-0.4855856155951921
143,1233.6339605010658,336316,109708,3.0655558391366173,-0.48650923121453116
144,1236.0052935904923,339839,110708,3.069687827437945,-0.48709421205226017
145,1238.3747075576039,343162,111704,3.072065458712311,-0.48743046528352235
146,1240.7422024024,346956,112716,3.078143298200788,-0.48828883387403416
147,1243.107778124881,350626,113736,3.082805795878174,-0.48894616681700154
148,1244.2898463152533,351998,114144,3.083806419960751,-0.48908710823057727
149,1246.652543354261,355709,114948,3.094521000800362,-0.4905934343549807
150,1249.0133212709538,359164,115996,3.0963481499362047,-0.49084978634402454
151,1251.3721800653313,362250,116984,3.0965773097175684,-0.4908819271567032
152,1253.7291197373936,365700,117916,3.1013602903762,-0.4915522219074639
153,1256.0841402871406,369392,118832,3.1085229567793187,-0.4925540790278888
154,1258.437241714572,372706,119724,3.1130433329992315,-0.49318516602510104
155,1259.6130727574198,374360,120160,3.1155126498002663,-0.4935295189441104
156,1261.9632955013785,377661,120992,3.1213716609362603,-0.49434548307860854
157,1264.311599123022,380653,121872,3.1233835499540503,-0.49462531865241444
158,1266.6579836223502,382868,122616,3.122496248450447,-0.4945019252597045
159,1269.0024489993632,385311,123436,3.1215447681389548,-0.4943695678164971
160,1271.344995254061,388047,124324,3.1212557511019594,-0.49432935557391594
161,1273.6856223864434,390613,125236,3.1190152991152704,-0.494017505024872
162,1274.8552162817664,391798,125692,3.1171275817076665,-0.49375457798993294
163,1277.1929647306758,394385,126424,3.1195421755362904,-0.4940908615736472
164,1279.52879405727,396837,127268,3.11812081591602,-0.49389293852092264
165,1281.862704261549,399710,128220,3.1173763843394164,-0.4937892410876542
166,1284.1946953435129,403162,129352,3.116782113921702,-0.4937064429476886
167,1286.5247673031613,406305,130464,3.114307395143488,-0.4933614770265329
168,1288.8529201404945,409735,131564,3.1143397890000304,-0.4933659943712237
169,1290.0162768882929,411101,132112,3.111761232893303,-0.49300626594776303
170,1292.3415510421532,414004,132968,3.1135611575717466,-0.4932574006933849
171,1294.6649060736981,416473,133820,3.112188013749813,-0.49306582574297014
172,1296.9863419829278,419486,134632,3.1157971358963694,-0.4935691737666279
173,1299.3058587698424,422498,135440,3.1194477259303013,-0.49407771234809944
174,1301.6234564344416,424960,136220,3.1196593745411834,-0.49410717740531473
175,1303.9391349767257,427647,136980,3.1219667104686817,-0.49442826786898797
176,1306.252894396694,429516,137612,3.1212103595616663,-0.4943230397060761
177,1307.4090544358103,430161,137928,3.1187358621889683,-0.49397859423408347
178,1309.7199351723061,432055,138504,3.119440593773465,-0.49407671939672754
179,1312.0288967864867,434216,139064,3.122418454812173,-0.4944911051446392
180,1314.3359392783518,435965,139608,3.1227794968769698,-0.49454131927007244
181,1316.641062647902,437498,140264,3.119103975360748,-0.4940298522091418
182,1318.9442668951365,439175,140820,3.1186976281778156,-0.49397326998650937
183,1321.245552020056,440149,141268,3.11570206982473,-0.49355592280759886
184,1322.3954749116474,440854,141428,3.117162089543796,-0.49375938577513506
185,1324.693881353094,441642,141736,3.1159479595868373,-0.4935901957742741
186,1326.9903686722253,443026,142148,3.116653065818724,-0.493688460927369
187,1329.2849368690413,444232,142548,3.1163678199623988,-0.4936487111162439
188,1331.577585943542,445059,142940,3.113607107877431,-0.4932638100156804
189,1333.8683158957274,445474,143132,3.1123298773160437,-0.4930856218348398
190,1336.1571267255977,445859,143316,3.111020402467275,-0.49290285927646293
191,1337.3008124696646,445714,143460,3.106886937125331,-0.49232544911077963
192,1339.5867446160619,446408,143748,3.105490163341403,-0.492130157953389
193,1341.870757640144,446420,143884,3.1026382363570653,-0.4917311403559833
194,1344.1528515419106,446616,144044,3.100552608925051,-0.4914391046789416
195,1346.4330263213624,446630,144240,3.096436494731004,-0.4908621774278714
196,1348.7112819784984,445723,144100,3.0931505898681473,-0.4904010641211017
197,1350.9876185133194,444263,143904,3.0872178674672,-0.48956727907718955
198,1352.1250671098617,443376,143776,3.083797017582907,-0.4890857840855164
199,1354.3985249612097,442133,143524,3.0805509879880715,-0.48862840144905323
200,1356.6700636902426,440681,143288,3.075491318184356,-0.4879145053900222
201,1358.93968329696,438278,142884,3.0673693345651016,-0.48676607148510215
202,1361.2073837813623,436516,142464,3.0640442497753817,-0.4862950329235257
203,1363.4731651434495,434496,142024,3.0593139187742917,-0.48562404259323366
204,1365.7370273832212,432513,141720,3.0518839966130398,-0.48456802188169534
205,1366.8682388322386,431586,141572,3.0485265447969936,-0.48408998095828876
206,1369.1292223885375,430250,141216,3.0467510763652843,-0.48383697323249936
207,1371.388286822521,428297,140876,3.0402410630625516,-0.4829080205190097
208,1373.6454321341894,426371,140544,3.033718977686703,-0.4819753483384696
209,1375.9006583235425,423936,139892,3.030452063020044,-0.48150741854549
210,1378.1539653905802,420707,139196,3.022407253081985,-0.4803529827858391
211,1380.4053533353026,417546,138484,3.0151208803905143,-0.47930472829514326
212,1381.5303276367956,416342,138260,3.0112975553305366,-0.47875367157163246
213,1383.7788368980453,413773,137824,3.002183944741119,-0.47743729808002555
214,1386.0254270369796,411586,137456,2.9943109067628915,-0.4762968922265632
215,1388.2700980535988,409398,137156,2.984907696345767,-0.47493090578783337
216,1390.5128499479024,406990,136864,2.97368190320318,-0.4732945098913211
217,1392.753682719891,404517,136576,2.9618454194001873,-0.47156238867089273
218,1394.9925963695644,402426,136324,2.951982042780435,-0.470113711299687
219,1397.2295908969222,400536,136072,2.9435592921394558,-0.468872788233678
220,1398.347368489733,399882,135948,2.9414334892753113,-0.4685590327107884
221,1400.5814843336182,398924,135760,2.938450206246317,-0.46811833573931255
222,1402.8136810551878,398063,135556,2.936520699932131,-0.4678330665903891
223,1405.0439586544426,396680,135336,2.9310752497487735,-0.4670269682614134
224,1407.272317131382,395041,135084,2.9244099967427672,-0.4660382598181788
225,1409.4987564860057,392434,134940,2.9082110567659702,-0.4636259212594599
226,1411.7232767183145,389048,134908,2.8838022948972633,-0.45996548310067575
227,1412.8348171636007,387465,134892,2.8724090383417846,-0.45824628461124794
228,1415.0564587124366,385144,134864,2.8557954680270496,-0.45572710006210376
229,1417.276181138957,383537,134692,2.8475113592492503,-0.4544654652355728
230,1419.4939844431624,383197,134576,2.8474393651171086,-0.45445448475274386
231,1421.7098686250524,384094,134516,2.855377798923548,-0.45566357847774375
232,1423.9238336846272,385147,134552,2.862439800225935,-0.45673636182668426
233,1426.1358796218867,385196,134508,2.8637404466648824,-0.45693365340910097
234,1427.2411829196483,385060,134460,2.8637513015023055,-0.4569352995733216
235,1429.4503501734348,384369,134396,2.859973511116402,-0.4563620107411924
236,1431.6575983049063,383628,134360,2.85522476927657,-0.4556403024992556
237,1433.8629273140623,383042,134368,2.8506936175279827,-0.45495054338202623
238,1436.066337200903,382614,134400,2.8468303571428573,-0.45436158827380574
239,1438.2678279654288,382322,134508,2.8423736878103907,-0.453681174184464
240,1440.467399607639,381987,134564,2.8387012871198833,-0.45311969468123053
241,1441.566465757876,381916,134568,2.838089293145473,-0.4530260552899878
242,1443.7631587166134,381497,134644,2.8333754196250855,-0.45230412195057984
243,1445.9579325530353,380959,134780,2.8265247069298116,-0.4512527860234099
244,1448.1507872671423,380535,134864,2.821620298967849,-0.4504985710207936
245,1450.3417228589337,380268,134872,2.8194732783676373,-0.4501679829064695
246,1452.5307393284102,379904,134812,2.8180280687179184,-0.44994531454643794
247,1454.717836675571,379274,134712,2.815443316111408,-0.4495467880265778
248,1455.8106656782834,379016,134664,2.8145309808115013,-0.4494060334977055
249,1457.9948843419716,378144,134612,2.80914034410008,-0.4485734370106437
250,1460.1771838833442,377290,134524,2.804629657161547,-0.44787552210919973
251,1462.357564302402,376412,134412,2.800434485016219,-0.44722541698734974
252,1464.5360255991443,375587,134256,2.79754349898701,-0.44677684809517054
253,1466.7125677735714,374596,134100,2.793407904548844,-0.44613435774180404
254,1468.8871908256833,373526,133936,2.7888394457054115,-0.4454235125266188
255,1469.973782680871,372938,133824,2.786779650884744,-0.4451026306479727
256,1472.1455270495098,371645,133540,2.783023813089711,-0.4445169224135302
257,1474.3153522958335,370473,133152,2.782331470800288,-0.4444088680586515
258,1476.4832584198418,369166,132768,2.780534466136418,-0.44412828274688343
259,1478.649245421535,367708,132256,2.7802746189208807,-0.44408769505174706
260,1480.8133133009128,366367,131812,2.7794662094498226,-0.4439613985981133
261,1482.9754620579752,364868,131444,2.77584370530416,-0.44339500939273757
262,1484.0558167656384,364158,131184,2.775933040614709,-0.4434089861191765
263,1486.215086839228,362459,130676,2.773722795310539,-0.44306305569812526
264,1488.3724377905023,361384,130032,2.779192814076535,-0.44391867818601755
265,1490.5278696194614,359925,129444,2.780546027625846,-0.44413008854382047
266,1492.6813823261054,358884,128908,2.784032022837993,-0.44467422636304016
267,1494.832975910434,357693,128344,2.7869865361840054,-0.4451348706598002
